/////////////////////////////////////////////////////////////////////////////////
/// Profile Data Ascii Dump (XRD)                                             ///
/////////////////////////////////////////////////////////////////////////////////

  Group     : Fom
  Data      : K3PO4-47-Bott
  File Name : K3PO4-47-Bott.RAW

# Data      [ Total No. = 2501 ]
  <2Theta>   <   I   >
    10.0000        68
    10.0200        82
    10.0400        80
    10.0600        70
    10.0800        80
    10.1000        74
    10.1200        72
    10.1400        86
    10.1600        74
    10.1800        78
    10.2000        66
    10.2200        74
    10.2400        82
    10.2600        74
    10.2800        68
    10.3000        74
    10.3200        86
    10.3400        66
    10.3600        78
    10.3800        76
    10.4000        60
    10.4200        48
    10.4400        66
    10.4600        76
    10.4800        70
    10.5000        72
    10.5200        82
    10.5400        74
    10.5600        70
    10.5800        62
    10.6000        68
    10.6200        72
    10.6400        88
    10.6600        72
    10.6800        78
    10.7000        68
    10.7200        66
    10.7400        66
    10.7600        54
    10.7800        74
    10.8000        58
    10.8200        62
    10.8400        54
    10.8600        56
    10.8800        52
    10.9000        68
    10.9200        80
    10.9400        72
    10.9600        76
    10.9800        78
    11.0000        90
    11.0200        76
    11.0400        92
    11.0600        90
    11.0800        96
    11.1000        72
    11.1200        66
    11.1400        64
    11.1600        54
    11.1800        72
    11.2000        58
    11.2200        68
    11.2400        54
    11.2600        82
    11.2800        62
    11.3000        62
    11.3200        56
    11.3400        60
    11.3600        72
    11.3800        50
    11.4000        58
    11.4200        66
    11.4400        66
    11.4600        80
    11.4800        60
    11.5000        56
    11.5200        54
    11.5400        68
    11.5600        60
    11.5800        70
    11.6000        62
    11.6200        48
    11.6400        60
    11.6600        56
    11.6800        50
    11.7000        74
    11.7200        64
    11.7400        50
    11.7600        60
    11.7800        68
    11.8000        56
    11.8200        56
    11.8400        60
    11.8600        60
    11.8800        56
    11.9000        60
    11.9200        54
    11.9400        46
    11.9600        54
    11.9800        64
    12.0000        40
    12.0200        56
    12.0400        56
    12.0600        64
    12.0800        58
    12.1000        52
    12.1200        64
    12.1400        62
    12.1600        50
    12.1800        54
    12.2000        80
    12.2200        58
    12.2400        60
    12.2600        42
    12.2800        52
    12.3000        48
    12.3200        54
    12.3400        62
    12.3600        42
    12.3800        58
    12.4000        58
    12.4200        62
    12.4400        58
    12.4600        54
    12.4800        48
    12.5000        48
    12.5200        54
    12.5400        44
    12.5600        50
    12.5800        62
    12.6000        70
    12.6200        52
    12.6400        58
    12.6600        54
    12.6800        62
    12.7000        52
    12.7200        50
    12.7400        46
    12.7600        44
    12.7800        60
    12.8000        52
    12.8200        50
    12.8400        50
    12.8600        56
    12.8800        42
    12.9000        50
    12.9200        56
    12.9400        44
    12.9600        44
    12.9800        54
    13.0000        44
    13.0200        52
    13.0400        52
    13.0600        46
    13.0800        44
    13.1000        50
    13.1200        52
    13.1400        48
    13.1600        56
    13.1800        42
    13.2000        54
    13.2200        40
    13.2400        50
    13.2600        58
    13.2800        52
    13.3000        42
    13.3200        52
    13.3400        42
    13.3600        50
    13.3800        46
    13.4000        52
    13.4200        54
    13.4400        44
    13.4600        46
    13.4800        50
    13.5000        56
    13.5200        48
    13.5400        50
    13.5600        54
    13.5800        50
    13.6000        46
    13.6200        40
    13.6400        40
    13.6600        40
    13.6800        42
    13.7000        40
    13.7200        36
    13.7400        34
    13.7600        40
    13.7800        40
    13.8000        48
    13.8200        58
    13.8400        44
    13.8600        46
    13.8800        46
    13.9000        36
    13.9200        48
    13.9400        42
    13.9600        48
    13.9800        38
    14.0000        38
    14.0200        42
    14.0400        42
    14.0600        34
    14.0800        40
    14.1000        40
    14.1200        52
    14.1400        40
    14.1600        48
    14.1800        56
    14.2000        50
    14.2200        36
    14.2400        30
    14.2600        42
    14.2800        42
    14.3000        48
    14.3200        34
    14.3400        34
    14.3600        32
    14.3800        50
    14.4000        46
    14.4200        50
    14.4400        54
    14.4600        52
    14.4800        32
    14.5000        36
    14.5200        32
    14.5400        30
    14.5600        50
    14.5800        40
    14.6000        40
    14.6200        36
    14.6400        32
    14.6600        42
    14.6800        36
    14.7000        42
    14.7200        42
    14.7400        42
    14.7600        36
    14.7800        36
    14.8000        44
    14.8200        42
    14.8400        42
    14.8600        38
    14.8800        44
    14.9000        38
    14.9200        32
    14.9400        44
    14.9600        40
    14.9800        52
    15.0000        40
    15.0200        46
    15.0400        48
    15.0600        38
    15.0800        36
    15.1000        46
    15.1200        52
    15.1400        40
    15.1600        52
    15.1800        46
    15.2000        56
    15.2200        74
    15.2400        64
    15.2600        50
    15.2800        48
    15.3000        64
    15.3200        74
    15.3400        56
    15.3600        68
    15.3800        84
    15.4000        92
    15.4200       104
    15.4400       120
    15.4600       158
    15.4800       176
    15.5000       230
    15.5200       252
    15.5400       318
    15.5600       352
    15.5800       474
    15.6000       444
    15.6200       404
    15.6400       328
    15.6600       220
    15.6800       142
    15.7000       114
    15.7200       102
    15.7400        80
    15.7600        66
    15.7800        56
    15.8000        54
    15.8200        50
    15.8400        46
    15.8600        56
    15.8800        54
    15.9000        48
    15.9200        34
    15.9400        38
    15.9600        34
    15.9800        48
    16.0000        44
    16.0200        40
    16.0400        40
    16.0600        44
    16.0800        38
    16.1000        28
    16.1200        42
    16.1400        28
    16.1600        36
    16.1800        44
    16.2000        38
    16.2200        36
    16.2400        42
    16.2600        40
    16.2800        42
    16.3000        28
    16.3200        48
    16.3400        48
    16.3600        38
    16.3800        32
    16.4000        46
    16.4200        36
    16.4400        44
    16.4600        52
    16.4800        28
    16.5000        44
    16.5200        38
    16.5400        42
    16.5600        36
    16.5800        34
    16.6000        36
    16.6200        42
    16.6400        36
    16.6600        38
    16.6800        44
    16.7000        40
    16.7200        38
    16.7400        42
    16.7600        42
    16.7800        46
    16.8000        36
    16.8200        34
    16.8400        38
    16.8600        34
    16.8800        34
    16.9000        38
    16.9200        24
    16.9400        40
    16.9600        48
    16.9800        40
    17.0000        42
    17.0200        42
    17.0400        42
    17.0600        62
    17.0800        68
    17.1000        46
    17.1200        56
    17.1400        64
    17.1600        64
    17.1800        56
    17.2000        68
    17.2200        70
    17.2400        80
    17.2600        84
    17.2800        84
    17.3000       102
    17.3200       106
    17.3400       140
    17.3600       156
    17.3800       182
    17.4000       228
    17.4200       264
    17.4400       344
    17.4600       412
    17.4800       424
    17.5000       394
    17.5200       342
    17.5400       262
    17.5600       178
    17.5800       120
    17.6000        84
    17.6200        68
    17.6400        56
    17.6600        48
    17.6800        58
    17.7000        50
    17.7200        54
    17.7400        50
    17.7600        44
    17.7800        44
    17.8000        46
    17.8200        40
    17.8400        40
    17.8600        54
    17.8800        38
    17.9000        36
    17.9200        34
    17.9400        54
    17.9600        34
    17.9800        50
    18.0000        46
    18.0200        42
    18.0400        36
    18.0600        42
    18.0800        60
    18.1000        34
    18.1200        42
    18.1400        36
    18.1600        36
    18.1800        38
    18.2000        32
    18.2200        38
    18.2400        34
    18.2600        46
    18.2800        32
    18.3000        26
    18.3200        36
    18.3400        32
    18.3600        36
    18.3800        36
    18.4000        40
    18.4200        38
    18.4400        36
    18.4600        38
    18.4800        38
    18.5000        34
    18.5200        36
    18.5400        38
    18.5600        40
    18.5800        30
    18.6000        34
    18.6200        32
    18.6400        30
    18.6600        24
    18.6800        28
    18.7000        32
    18.7200        40
    18.7400        38
    18.7600        32
    18.7800        32
    18.8000        24
    18.8200        32
    18.8400        46
    18.8600        36
    18.8800        38
    18.9000        40
    18.9200        30
    18.9400        42
    18.9600        48
    18.9800        36
    19.0000        42
    19.0200        38
    19.0400        34
    19.0600        40
    19.0800        36
    19.1000        38
    19.1200        28
    19.1400        32
    19.1600        40
    19.1800        46
    19.2000        40
    19.2200        32
    19.2400        36
    19.2600        48
    19.2800        38
    19.3000        38
    19.3200        34
    19.3400        38
    19.3600        40
    19.3800        36
    19.4000        24
    19.4200        38
    19.4400        34
    19.4600        34
    19.4800        34
    19.5000        38
    19.5200        34
    19.5400        28
    19.5600        40
    19.5800        26
    19.6000        36
    19.6200        30
    19.6400        44
    19.6600        38
    19.6800        38
    19.7000        34
    19.7200        58
    19.7400        30
    19.7600        40
    19.7800        40
    19.8000        34
    19.8200        34
    19.8400        46
    19.8600        36
    19.8800        28
    19.9000        34
    19.9200        28
    19.9400        24
    19.9600        32
    19.9800        18
    20.0000        38
    20.0200        32
    20.0400        46
    20.0600        30
    20.0800        46
    20.1000        32
    20.1200        24
    20.1400        26
    20.1600        32
    20.1800        26
    20.2000        36
    20.2200        28
    20.2400        20
    20.2600        36
    20.2800        28
    20.3000        30
    20.3200        32
    20.3400        40
    20.3600        22
    20.3800        24
    20.4000        34
    20.4200        40
    20.4400        34
    20.4600        28
    20.4800        28
    20.5000        26
    20.5200        30
    20.5400        32
    20.5600        40
    20.5800        26
    20.6000        22
    20.6200        34
    20.6400        28
    20.6600        26
    20.6800        30
    20.7000        42
    20.7200        24
    20.7400        36
    20.7600        38
    20.7800        36
    20.8000        28
    20.8200        42
    20.8400        24
    20.8600        32
    20.8800        36
    20.9000        28
    20.9200        28
    20.9400        26
    20.9600        20
    20.9800        40
    21.0000        32
    21.0200        36
    21.0400        20
    21.0600        26
    21.0800        16
    21.1000        26
    21.1200        26
    21.1400        30
    21.1600        20
    21.1800        34
    21.2000        24
    21.2200        32
    21.2400        34
    21.2600        32
    21.2800        32
    21.3000        28
    21.3200        32
    21.3400        42
    21.3600        34
    21.3800        26
    21.4000        32
    21.4200        42
    21.4400        28
    21.4600        28
    21.4800        20
    21.5000        46
    21.5200        10
    21.5400        42
    21.5600        32
    21.5800        32
    21.6000        26
    21.6200        30
    21.6400        32
    21.6600        24
    21.6800        34
    21.7000        34
    21.7200        34
    21.7400        30
    21.7600        30
    21.7800        32
    21.8000        34
    21.8200        26
    21.8400        26
    21.8600        20
    21.8800        30
    21.9000        24
    21.9200        32
    21.9400        28
    21.9600        38
    21.9800        42
    22.0000        30
    22.0200        30
    22.0400        46
    22.0600        48
    22.0800        56
    22.1000        64
    22.1200        50
    22.1400        76
    22.1600        96
    22.1800       114
    22.2000       130
    22.2200       138
    22.2400       136
    22.2600       144
    22.2800       108
    22.3000        88
    22.3200        70
    22.3400        56
    22.3600        44
    22.3800        32
    22.4000        40
    22.4200        46
    22.4400        40
    22.4600        26
    22.4800        26
    22.5000        38
    22.5200        24
    22.5400        26
    22.5600        34
    22.5800        26
    22.6000        36
    22.6200        30
    22.6400        22
    22.6600        36
    22.6800        34
    22.7000        38
    22.7200        28
    22.7400        34
    22.7600        32
    22.7800        26
    22.8000        22
    22.8200        28
    22.8400        28
    22.8600        26
    22.8800        26
    22.9000        18
    22.9200        22
    22.9400        26
    22.9600        40
    22.9800        20
    23.0000        16
    23.0200        28
    23.0400        24
    23.0600        32
    23.0800        24
    23.1000        20
    23.1200        28
    23.1400        22
    23.1600        26
    23.1800        34
    23.2000        34
    23.2200        26
    23.2400        18
    23.2600        20
    23.2800        30
    23.3000        30
    23.3200        20
    23.3400        22
    23.3600        24
    23.3800        24
    23.4000        36
    23.4200        18
    23.4400        36
    23.4600        18
    23.4800        30
    23.5000        22
    23.5200        28
    23.5400        32
    23.5600        24
    23.5800        32
    23.6000        20
    23.6200        26
    23.6400        14
    23.6600        24
    23.6800        26
    23.7000        24
    23.7200        22
    23.7400        24
    23.7600        22
    23.7800        12
    23.8000        26
    23.8200        28
    23.8400        26
    23.8600        26
    23.8800        20
    23.9000        12
    23.9200        32
    23.9400        26
    23.9600        24
    23.9800        36
    24.0000        32
    24.0200        34
    24.0400        16
    24.0600        38
    24.0800        36
    24.1000        42
    24.1200        32
    24.1400        30
    24.1600        22
    24.1800        26
    24.2000        24
    24.2200        36
    24.2400        30
    24.2600        36
    24.2800        40
    24.3000        34
    24.3200        42
    24.3400        50
    24.3600        52
    24.3800        64
    24.4000        84
    24.4200        72
    24.4400        86
    24.4600        78
    24.4800        88
    24.5000        80
    24.5200        78
    24.5400        62
    24.5600        70
    24.5800        66
    24.6000        92
    24.6200        82
    24.6400       126
    24.6600       134
    24.6800       162
    24.7000       224
    24.7200       282
    24.7400       372
    24.7600       478
    24.7800       604
    24.8000       730
    24.8200       788
    24.8400       804
    24.8600       806
    24.8800       666
    24.9000       510
    24.9200       464
    24.9400       348
    24.9600       278
    24.9800       286
    25.0000       252
    25.0200       172
    25.0400       166
    25.0600       130
    25.0800       106
    25.1000        58
    25.1200        44
    25.1400        52
    25.1600        54
    25.1800        44
    25.2000        42
    25.2200        32
    25.2400        34
    25.2600        32
    25.2800        18
    25.3000        26
    25.3200        32
    25.3400        34
    25.3600        34
    25.3800        38
    25.4000        20
    25.4200        22
    25.4400        22
    25.4600        32
    25.4800        36
    25.5000        26
    25.5200        26
    25.5400        24
    25.5600        34
    25.5800        46
    25.6000        60
    25.6200        50
    25.6400        54
    25.6600        80
    25.6800        86
    25.7000        86
    25.7200        70
    25.7400        54
    25.7600        58
    25.7800        50
    25.8000        32
    25.8200        38
    25.8400        28
    25.8600        26
    25.8800        34
    25.9000        24
    25.9200        26
    25.9400        20
    25.9600        20
    25.9800        18
    26.0000        18
    26.0200        20
    26.0400        22
    26.0600        16
    26.0800        18
    26.1000        18
    26.1200        16
    26.1400        18
    26.1600        20
    26.1800        16
    26.2000        18
    26.2200        24
    26.2400        16
    26.2600        24
    26.2800         8
    26.3000        16
    26.3200        16
    26.3400        18
    26.3600        20
    26.3800        28
    26.4000        22
    26.4200        22
    26.4400        28
    26.4600        22
    26.4800        22
    26.5000        26
    26.5200        20
    26.5400        22
    26.5600        16
    26.5800        14
    26.6000        18
    26.6200        12
    26.6400        18
    26.6600        16
    26.6800        20
    26.7000        28
    26.7200        24
    26.7400        14
    26.7600        24
    26.7800        20
    26.8000        10
    26.8200        20
    26.8400        18
    26.8600        20
    26.8800        14
    26.9000        16
    26.9200        24
    26.9400        18
    26.9600        18
    26.9800        16
    27.0000        18
    27.0200        12
    27.0400        14
    27.0600        24
    27.0800        16
    27.1000        16
    27.1200        14
    27.1400        26
    27.1600        14
    27.1800        24
    27.2000        18
    27.2200        18
    27.2400        22
    27.2600        14
    27.2800        20
    27.3000        12
    27.3200        14
    27.3400        14
    27.3600        20
    27.3800        20
    27.4000        16
    27.4200        18
    27.4400        14
    27.4600        28
    27.4800        24
    27.5000        12
    27.5200        20
    27.5400        10
    27.5600        16
    27.5800        18
    27.6000        18
    27.6200        12
    27.6400        18
    27.6600        20
    27.6800        24
    27.7000        20
    27.7200        18
    27.7400        30
    27.7600        26
    27.7800        28
    27.8000        38
    27.8200        20
    27.8400        30
    27.8600        32
    27.8800        24
    27.9000        34
    27.9200        36
    27.9400        36
    27.9600        54
    27.9800        46
    28.0000        60
    28.0200        54
    28.0400        54
    28.0600        68
    28.0800        68
    28.1000        66
    28.1200        46
    28.1400        34
    28.1600        42
    28.1800        36
    28.2000        26
    28.2200        40
    28.2400        38
    28.2600        50
    28.2800        52
    28.3000        72
    28.3200        70
    28.3400       104
    28.3600       112
    28.3800       160
    28.4000       188
    28.4200       212
    28.4400       208
    28.4600       216
    28.4800       190
    28.5000       190
    28.5200       132
    28.5400       128
    28.5600       116
    28.5800        72
    28.6000        60
    28.6200        46
    28.6400        36
    28.6600        30
    28.6800        44
    28.7000        38
    28.7200        30
    28.7400        46
    28.7600        50
    28.7800        48
    28.8000        52
    28.8200        46
    28.8400        48
    28.8600        42
    28.8800        38
    28.9000        28
    28.9200        38
    28.9400        48
    28.9600        50
    28.9800        54
    29.0000        58
    29.0200        52
    29.0400        82
    29.0600        86
    29.0800       116
    29.1000       148
    29.1200       166
    29.1400       186
    29.1600       270
    29.1800       242
    29.2000       266
    29.2200       280
    29.2400       196
    29.2600       204
    29.2800       142
    29.3000       110
    29.3200        84
    29.3400        72
    29.3600        60
    29.3800        46
    29.4000        50
    29.4200        26
    29.4400        26
    29.4600        24
    29.4800        22
    29.5000        30
    29.5200        22
    29.5400        16
    29.5600        12
    29.5800        26
    29.6000        14
    29.6200        18
    29.6400        16
    29.6600        16
    29.6800        12
    29.7000        18
    29.7200        18
    29.7400        20
    29.7600        18
    29.7800        12
    29.8000        12
    29.8200        22
    29.8400        12
    29.8600        22
    29.8800        18
    29.9000        12
    29.9200        10
    29.9400        12
    29.9600        16
    29.9800        16
    30.0000        16
    30.0200        12
    30.0400        16
    30.0600        22
    30.0800        14
    30.1000        12
    30.1200        14
    30.1400        14
    30.1600        16
    30.1800        26
    30.2000        14
    30.2200        16
    30.2400        16
    30.2600        12
    30.2800        16
    30.3000        10
    30.3200        16
    30.3400        12
    30.3600        14
    30.3800        20
    30.4000        26
    30.4200        20
    30.4400        38
    30.4600        26
    30.4800        30
    30.5000        28
    30.5200        20
    30.5400        22
    30.5600        20
    30.5800        26
    30.6000        14
    30.6200        16
    30.6400        20
    30.6600        22
    30.6800        12
    30.7000        18
    30.7200        12
    30.7400        18
    30.7600        20
    30.7800        16
    30.8000        16
    30.8200        16
    30.8400        12
    30.8600         8
    30.8800        12
    30.9000        10
    30.9200        14
    30.9400        14
    30.9600        20
    30.9800        18
    31.0000        22
    31.0200        18
    31.0400        18
    31.0600        20
    31.0800        12
    31.1000        16
    31.1200        16
    31.1400        18
    31.1600        14
    31.1800         8
    31.2000        10
    31.2200        12
    31.2400        14
    31.2600         8
    31.2800        14
    31.3000         8
    31.3200        14
    31.3400        10
    31.3600        12
    31.3800        14
    31.4000         8
    31.4200        10
    31.4400        16
    31.4600        16
    31.4800        18
    31.5000        18
    31.5200        24
    31.5400        14
    31.5600        22
    31.5800        20
    31.6000        24
    31.6200        16
    31.6400        22
    31.6600        24
    31.6800        16
    31.7000        16
    31.7200        16
    31.7400        16
    31.7600        12
    31.7800        12
    31.8000        20
    31.8200        16
    31.8400        26
    31.8600        10
    31.8800        26
    31.9000        20
    31.9200        18
    31.9400        30
    31.9600        28
    31.9800        32
    32.0000        24
    32.0200        40
    32.0400        26
    32.0600        44
    32.0800        34
    32.1000        46
    32.1200        48
    32.1400        62
    32.1600        82
    32.1800        88
    32.2000       116
    32.2200       122
    32.2400       208
    32.2600       198
    32.2800       284
    32.3000       274
    32.3200       266
    32.3400       254
    32.3600       250
    32.3800       206
    32.4000       142
    32.4200       142
    32.4400        94
    32.4600        80
    32.4800        64
    32.5000        56
    32.5200        38
    32.5400        28
    32.5600        38
    32.5800        30
    32.6000        24
    32.6200        24
    32.6400        22
    32.6600        20
    32.6800        34
    32.7000        22
    32.7200        28
    32.7400        22
    32.7600        24
    32.7800        20
    32.8000        30
    32.8200        24
    32.8400        26
    32.8600        16
    32.8800        20
    32.9000        26
    32.9200        16
    32.9400        24
    32.9600        16
    32.9800        16
    33.0000        20
    33.0200        22
    33.0400        20
    33.0600        16
    33.0800        14
    33.1000        26
    33.1200        22
    33.1400        30
    33.1600        16
    33.1800        22
    33.2000        30
    33.2200        42
    33.2400        34
    33.2600        38
    33.2800        62
    33.3000        64
    33.3200        90
    33.3400       102
    33.3600       100
    33.3800       114
    33.4000        84
    33.4200        78
    33.4400        68
    33.4600        68
    33.4800        50
    33.5000        40
    33.5200        30
    33.5400        26
    33.5600        32
    33.5800        26
    33.6000        28
    33.6200        42
    33.6400        28
    33.6600        24
    33.6800        24
    33.7000        18
    33.7200        26
    33.7400        16
    33.7600        14
    33.7800        12
    33.8000        12
    33.8200        16
    33.8400        14
    33.8600        12
    33.8800         8
    33.9000        18
    33.9200        14
    33.9400        16
    33.9600        20
    33.9800        22
    34.0000        14
    34.0200        14
    34.0400        22
    34.0600        22
    34.0800        18
    34.1000        14
    34.1200        28
    34.1400        24
    34.1600        26
    34.1800        38
    34.2000        42
    34.2200        50
    34.2400        46
    34.2600        44
    34.2800        50
    34.3000        68
    34.3200        60
    34.3400        54
    34.3600        58
    34.3800        50
    34.4000        52
    34.4200        32
    34.4400        32
    34.4600        18
    34.4800        16
    34.5000        18
    34.5200        12
    34.5400        20
    34.5600        10
    34.5800        14
    34.6000        14
    34.6200        14
    34.6400        14
    34.6600         8
    34.6800        14
    34.7000        10
    34.7200         4
    34.7400        12
    34.7600        14
    34.7800        14
    34.8000        16
    34.8200         6
    34.8400        16
    34.8600        12
    34.8800        10
    34.9000        12
    34.9200         8
    34.9400        20
    34.9600        10
    34.9800        18
    35.0000        12
    35.0200        14
    35.0400        14
    35.0600        32
    35.0800        24
    35.1000        22
    35.1200        26
    35.1400        26
    35.1600        22
    35.1800        20
    35.2000        24
    35.2200        22
    35.2400        36
    35.2600        50
    35.2800        48
    35.3000        60
    35.3200        86
    35.3400       128
    35.3600       124
    35.3800       166
    35.4000       222
    35.4200       324
    35.4400       366
    35.4600       408
    35.4800       336
    35.5000       316
    35.5200       302
    35.5400       270
    35.5600       240
    35.5800       174
    35.6000       154
    35.6200       120
    35.6400        96
    35.6600        74
    35.6800        78
    35.7000        46
    35.7200        42
    35.7400        38
    35.7600        36
    35.7800        24
    35.8000        18
    35.8200        26
    35.8400        20
    35.8600        18
    35.8800        12
    35.9000        24
    35.9200        10
    35.9400        16
    35.9600        10
    35.9800        20
    36.0000        10
    36.0200        16
    36.0400        10
    36.0600        16
    36.0800        14
    36.1000        12
    36.1200        10
    36.1400        12
    36.1600         6
    36.1800        10
    36.2000        12
    36.2200         8
    36.2400         8
    36.2600         8
    36.2800         8
    36.3000        10
    36.3200         6
    36.3400        14
    36.3600        18
    36.3800        18
    36.4000        10
    36.4200        10
    36.4400         6
    36.4600         4
    36.4800        12
    36.5000        10
    36.5200        10
    36.5400        12
    36.5600        14
    36.5800        12
    36.6000         8
    36.6200        10
    36.6400        12
    36.6600        10
    36.6800        12
    36.7000        12
    36.7200        18
    36.7400        14
    36.7600        12
    36.7800        14
    36.8000        20
    36.8200        20
    36.8400        30
    36.8600        32
    36.8800        40
    36.9000        48
    36.9200        42
    36.9400        60
    36.9600        76
    36.9800        90
    37.0000        70
    37.0200        68
    37.0400        80
    37.0600        62
    37.0800        52
    37.1000        44
    37.1200        28
    37.1400        26
    37.1600        22
    37.1800        22
    37.2000        18
    37.2200        12
    37.2400        12
    37.2600        12
    37.2800         6
    37.3000        12
    37.3200         8
    37.3400         6
    37.3600         8
    37.3800         8
    37.4000        10
    37.4200         4
    37.4400        12
    37.4600         6
    37.4800        12
    37.5000        12
    37.5200        18
    37.5400         8
    37.5600        10
    37.5800        12
    37.6000        16
    37.6200         6
    37.6400         8
    37.6600        16
    37.6800        10
    37.7000        18
    37.7200         6
    37.7400        18
    37.7600        12
    37.7800         6
    37.8000         8
    37.8200         6
    37.8400         4
    37.8600        10
    37.8800         8
    37.9000         8
    37.9200         6
    37.9400         4
    37.9600         8
    37.9800        10
    38.0000        10
    38.0200        14
    38.0400         6
    38.0600        10
    38.0800         4
    38.1000         8
    38.1200        12
    38.1400        16
    38.1600         6
    38.1800         8
    38.2000        14
    38.2200         6
    38.2400         6
    38.2600        14
    38.2800         6
    38.3000         8
    38.3200         8
    38.3400        10
    38.3600        10
    38.3800        12
    38.4000         6
    38.4200         8
    38.4400        10
    38.4600         8
    38.4800         8
    38.5000        10
    38.5200        12
    38.5400        14
    38.5600        10
    38.5800        16
    38.6000        10
    38.6200         6
    38.6400         8
    38.6600         6
    38.6800         8
    38.7000        10
    38.7200         2
    38.7400        14
    38.7600        12
    38.7800        14
    38.8000         8
    38.8200        10
    38.8400         4
    38.8600        12
    38.8800         8
    38.9000        10
    38.9200        10
    38.9400        12
    38.9600        14
    38.9800        12
    39.0000         8
    39.0200        24
    39.0400        18
    39.0600        10
    39.0800        14
    39.1000        12
    39.1200        10
    39.1400        14
    39.1600        16
    39.1800        12
    39.2000        16
    39.2200        12
    39.2400        16
    39.2600        18
    39.2800        20
    39.3000        14
    39.3200        28
    39.3400        36
    39.3600        34
    39.3800        38
    39.4000        52
    39.4200        60
    39.4400        62
    39.4600       116
    39.4800       126
    39.5000       126
    39.5200       132
    39.5400       146
    39.5600       128
    39.5800        90
    39.6000        88
    39.6200        74
    39.6400        78
    39.6600        58
    39.6800        52
    39.7000        28
    39.7200        28
    39.7400        38
    39.7600        38
    39.7800        36
    39.8000        30
    39.8200        42
    39.8400        48
    39.8600        66
    39.8800        52
    39.9000        64
    39.9200        56
    39.9400        70
    39.9600        62
    39.9800        56
    40.0000        56
    40.0200        48
    40.0400        46
    40.0600        48
    40.0800        40
    40.1000        32
    40.1200        38
    40.1400        30
    40.1600        30
    40.1800        50
    40.2000        38
    40.2200        46
    40.2400        64
    40.2600        84
    40.2800       116
    40.3000       122
    40.3200       142
    40.3400       148
    40.3600       144
    40.3800       136
    40.4000       152
    40.4200       110
    40.4400       104
    40.4600        94
    40.4800        92
    40.5000        58
    40.5200        68
    40.5400        50
    40.5600        48
    40.5800        28
    40.6000        38
    40.6200        44
    40.6400        26
    40.6600        36
    40.6800        20
    40.7000        30
    40.7200        16
    40.7400        26
    40.7600        16
    40.7800        16
    40.8000        24
    40.8200        12
    40.8400        22
    40.8600        20
    40.8800        14
    40.9000        18
    40.9200        22
    40.9400        20
    40.9600        20
    40.9800         8
    41.0000        14
    41.0200        10
    41.0400         8
    41.0600         6
    41.0800        16
    41.1000         6
    41.1200        18
    41.1400        14
    41.1600         8
    41.1800        14
    41.2000        16
    41.2200        20
    41.2400        18
    41.2600        18
    41.2800        16
    41.3000        14
    41.3200        18
    41.3400        24
    41.3600        16
    41.3800        14
    41.4000        16
    41.4200         8
    41.4400         8
    41.4600         8
    41.4800        16
    41.5000         8
    41.5200        10
    41.5400        10
    41.5600        12
    41.5800        12
    41.6000        10
    41.6200         6
    41.6400         6
    41.6600        14
    41.6800         8
    41.7000         8
    41.7200         4
    41.7400         6
    41.7600         6
    41.7800         8
    41.8000        10
    41.8200         8
    41.8400         8
    41.8600        12
    41.8800         4
    41.9000        16
    41.9200        14
    41.9400        12
    41.9600        14
    41.9800         8
    42.0000         6
    42.0200         4
    42.0400         8
    42.0600        10
    42.0800         6
    42.1000         6
    42.1200         8
    42.1400         6
    42.1600         4
    42.1800        12
    42.2000        10
    42.2200        10
    42.2400        12
    42.2600         6
    42.2800        12
    42.3000        10
    42.3200        10
    42.3400         6
    42.3600        12
    42.3800         6
    42.4000        14
    42.4200         8
    42.4400         6
    42.4600        10
    42.4800        10
    42.5000         2
    42.5200        16
    42.5400         8
    42.5600        10
    42.5800        12
    42.6000        12
    42.6200        12
    42.6400        20
    42.6600        20
    42.6800        22
    42.7000        36
    42.7200        30
    42.7400        32
    42.7600        28
    42.7800        34
    42.8000        54
    42.8200        42
    42.8400        54
    42.8600        48
    42.8800        88
    42.9000        86
    42.9200        84
    42.9400        98
    42.9600       130
    42.9800       158
    43.0000       166
    43.0200       198
    43.0400       184
    43.0600       158
    43.0800       154
    43.1000       122
    43.1200       118
    43.1400        98
    43.1600        90
    43.1800        64
    43.2000        76
    43.2200        56
    43.2400        50
    43.2600        48
    43.2800        54
    43.3000        36
    43.3200        46
    43.3400        26
    43.3600        18
    43.3800        20
    43.4000        26
    43.4200        22
    43.4400        14
    43.4600         8
    43.4800        12
    43.5000        12
    43.5200        10
    43.5400        12
    43.5600        10
    43.5800        18
    43.6000         8
    43.6200        10
    43.6400        10
    43.6600         6
    43.6800        12
    43.7000        12
    43.7200        10
    43.7400        14
    43.7600         8
    43.7800         8
    43.8000         4
    43.8200        12
    43.8400         8
    43.8600         8
    43.8800         8
    43.9000         6
    43.9200         8
    43.9400         8
    43.9600         8
    43.9800         6
    44.0000        12
    44.0200         4
    44.0400         8
    44.0600        10
    44.0800        10
    44.1000        16
    44.1200         8
    44.1400        16
    44.1600         8
    44.1800         8
    44.2000         6
    44.2200         6
    44.2400         2
    44.2600         4
    44.2800         6
    44.3000         4
    44.3200         6
    44.3400         6
    44.3600        10
    44.3800        12
    44.4000         4
    44.4200         6
    44.4400        10
    44.4600         6
    44.4800         4
    44.5000        10
    44.5200         6
    44.5400        10
    44.5600         8
    44.5800         6
    44.6000         8
    44.6200         8
    44.6400         6
    44.6600         8
    44.6800         4
    44.7000        14
    44.7200        10
    44.7400         8
    44.7600         4
    44.7800         4
    44.8000         8
    44.8200         2
    44.8400         6
    44.8600        12
    44.8800         6
    44.9000         0
    44.9200        10
    44.9400         8
    44.9600         6
    44.9800         2
    45.0000        14
    45.0200        10
    45.0400         6
    45.0600        12
    45.0800        10
    45.1000        12
    45.1200        10
    45.1400         6
    45.1600         8
    45.1800         8
    45.2000        10
    45.2200         6
    45.2400         8
    45.2600         8
    45.2800        20
    45.3000        12
    45.3200        18
    45.3400        18
    45.3600        16
    45.3800        30
    45.4000        44
    45.4200        34
    45.4400        30
    45.4600        38
    45.4800        34
    45.5000        38
    45.5200        30
    45.5400        20
    45.5600        34
    45.5800        28
    45.6000        22
    45.6200        22
    45.6400        12
    45.6600        16
    45.6800        10
    45.7000        14
    45.7200        10
    45.7400        12
    45.7600         4
    45.7800         4
    45.8000         8
    45.8200        12
    45.8400        10
    45.8600        10
    45.8800        12
    45.9000         6
    45.9200         8
    45.9400        10
    45.9600         6
    45.9800        12
    46.0000        14
    46.0200         6
    46.0400        10
    46.0600        10
    46.0800        14
    46.1000        10
    46.1200        16
    46.1400         8
    46.1600        10
    46.1800        12
    46.2000        14
    46.2200        18
    46.2400        10
    46.2600        10
    46.2800         8
    46.3000        12
    46.3200        14
    46.3400        30
    46.3600        14
    46.3800        16
    46.4000        22
    46.4200        20
    46.4400        24
    46.4600        26
    46.4800        32
    46.5000        30
    46.5200        42
    46.5400        46
    46.5600        58
    46.5800        78
    46.6000        88
    46.6200       132
    46.6400       124
    46.6600       142
    46.6800       176
    46.7000       172
    46.7200       178
    46.7400       162
    46.7600       156
    46.7800       174
    46.8000       172
    46.8200       152
    46.8400       140
    46.8600       108
    46.8800       120
    46.9000        92
    46.9200        80
    46.9400        82
    46.9600        94
    46.9800       104
    47.0000        80
    47.0200       106
    47.0400        76
    47.0600        64
    47.0800        60
    47.1000        78
    47.1200        62
    47.1400        58
    47.1600        76
    47.1800        60
    47.2000        74
    47.2200        86
    47.2400       102
    47.2600       126
    47.2800       118
    47.3000       102
    47.3200       102
    47.3400        88
    47.3600       100
    47.3800        82
    47.4000        72
    47.4200        70
    47.4400        50
    47.4600        60
    47.4800        52
    47.5000        40
    47.5200        44
    47.5400        24
    47.5600        32
    47.5800        26
    47.6000        24
    47.6200        18
    47.6400        18
    47.6600        20
    47.6800        22
    47.7000        20
    47.7200        18
    47.7400        12
    47.7600        20
    47.7800        14
    47.8000        12
    47.8200        14
    47.8400        16
    47.8600        16
    47.8800        28
    47.9000        20
    47.9200        20
    47.9400        26
    47.9600        20
    47.9800        16
    48.0000        14
    48.0200        24
    48.0400        20
    48.0600        36
    48.0800        42
    48.1000        42
    48.1200        70
    48.1400        74
    48.1600       110
    48.1800       116
    48.2000       118
    48.2200       102
    48.2400        98
    48.2600        80
    48.2800        78
    48.3000        72
    48.3200        74
    48.3400        66
    48.3600        52
    48.3800        50
    48.4000        24
    48.4200        24
    48.4400        16
    48.4600        18
    48.4800        20
    48.5000        22
    48.5200        26
    48.5400        32
    48.5600        36
    48.5800        26
    48.6000        32
    48.6200        28
    48.6400        22
    48.6600        16
    48.6800        28
    48.7000        34
    48.7200        24
    48.7400        30
    48.7600        22
    48.7800        24
    48.8000        16
    48.8200        38
    48.8400        34
    48.8600        56
    48.8800        60
    48.9000        66
    48.9200        46
    48.9400        42
    48.9600        34
    48.9800        28
    49.0000        42
    49.0200        42
    49.0400        32
    49.0600        24
    49.0800        40
    49.1000        18
    49.1200        18
    49.1400        16
    49.1600        16
    49.1800        18
    49.2000        24
    49.2200        18
    49.2400        22
    49.2600        20
    49.2800        34
    49.3000        32
    49.3200        26
    49.3400        20
    49.3600        30
    49.3800        34
    49.4000        34
    49.4200        28
    49.4400        20
    49.4600        26
    49.4800        28
    49.5000        20
    49.5200        20
    49.5400        24
    49.5600        18
    49.5800        16
    49.6000        22
    49.6200        14
    49.6400        12
    49.6600        16
    49.6800        12
    49.7000        10
    49.7200        12
    49.7400        10
    49.7600         8
    49.7800        12
    49.8000        16
    49.8200         6
    49.8400        10
    49.8600         8
    49.8800        10
    49.9000        12
    49.9200         4
    49.9400        12
    49.9600         8
    49.9800         6
    50.0000        16
    50.0200        12
    50.0400        12
    50.0600        16
    50.0800        10
    50.1000        10
    50.1200        18
    50.1400        14
    50.1600        14
    50.1800        20
    50.2000        12
    50.2200        18
    50.2400        14
    50.2600         8
    50.2800        12
    50.3000        14
    50.3200        18
    50.3400        18
    50.3600        10
    50.3800        10
    50.4000        12
    50.4200        10
    50.4400        10
    50.4600        14
    50.4800        14
    50.5000        12
    50.5200        14
    50.5400         8
    50.5600         8
    50.5800        10
    50.6000         6
    50.6200         6
    50.6400        12
    50.6600        14
    50.6800        18
    50.7000        16
    50.7200         8
    50.7400        14
    50.7600        10
    50.7800        20
    50.8000        18
    50.8200        20
    50.8400        26
    50.8600        18
    50.8800        16
    50.9000        24
    50.9200        16
    50.9400        18
    50.9600        18
    50.9800        26
    51.0000        16
    51.0200        32
    51.0400        26
    51.0600        18
    51.0800        20
    51.1000        14
    51.1200        10
    51.1400        16
    51.1600        24
    51.1800        16
    51.2000        16
    51.2200        20
    51.2400        12
    51.2600        22
    51.2800        14
    51.3000        18
    51.3200        22
    51.3400        16
    51.3600        16
    51.3800        16
    51.4000        14
    51.4200         8
    51.4400        16
    51.4600         8
    51.4800        10
    51.5000        14
    51.5200        16
    51.5400        10
    51.5600        14
    51.5800         8
    51.6000        12
    51.6200         4
    51.6400        14
    51.6600        12
    51.6800        12
    51.7000        16
    51.7200        10
    51.7400        10
    51.7600         6
    51.7800        12
    51.8000        14
    51.8200        18
    51.8400        22
    51.8600        14
    51.8800        20
    51.9000        24
    51.9200        26
    51.9400        24
    51.9600        20
    51.9800        12
    52.0000        14
    52.0200        16
    52.0400         8
    52.0600        20
    52.0800        18
    52.1000        16
    52.1200        14
    52.1400        16
    52.1600         8
    52.1800        14
    52.2000        18
    52.2200         6
    52.2400        12
    52.2600         6
    52.2800        10
    52.3000        14
    52.3200        10
    52.3400        12
    52.3600         6
    52.3800        16
    52.4000        10
    52.4200         6
    52.4400        10
    52.4600        12
    52.4800        12
    52.5000        14
    52.5200        14
    52.5400        12
    52.5600        14
    52.5800        16
    52.6000        10
    52.6200        14
    52.6400        12
    52.6600        20
    52.6800        18
    52.7000        20
    52.7200        20
    52.7400        30
    52.7600        34
    52.7800        48
    52.8000        46
    52.8200        62
    52.8400        68
    52.8600        76
    52.8800        84
    52.9000        92
    52.9200        74
    52.9400        80
    52.9600        80
    52.9800        66
    53.0000        58
    53.0200        82
    53.0400        64
    53.0600        48
    53.0800        50
    53.1000        48
    53.1200        40
    53.1400        32
    53.1600        40
    53.1800        30
    53.2000        30
    53.2200        28
    53.2400        16
    53.2600        14
    53.2800        18
    53.3000        14
    53.3200        10
    53.3400        14
    53.3600        12
    53.3800        14
    53.4000        12
    53.4200        14
    53.4400        14
    53.4600         6
    53.4800        14
    53.5000        10
    53.5200        10
    53.5400        16
    53.5600         8
    53.5800        14
    53.6000        12
    53.6200        10
    53.6400         4
    53.6600        10
    53.6800        18
    53.7000        16
    53.7200        10
    53.7400        16
    53.7600        18
    53.7800        18
    53.8000        18
    53.8200        16
    53.8400        20
    53.8600        10
    53.8800        26
    53.9000        26
    53.9200        44
    53.9400        38
    53.9600        38
    53.9800        42
    54.0000        46
    54.0200        70
    54.0400        94
    54.0600       106
    54.0800       152
    54.1000       186
    54.1200       192
    54.1400       200
    54.1600       182
    54.1800       156
    54.2000       156
    54.2200       132
    54.2400       152
    54.2600       162
    54.2800       150
    54.3000       126
    54.3200       110
    54.3400       102
    54.3600        96
    54.3800        84
    54.4000        80
    54.4200        80
    54.4400        56
    54.4600        46
    54.4800        38
    54.5000        38
    54.5200        36
    54.5400        46
    54.5600        38
    54.5800        42
    54.6000        24
    54.6200        18
    54.6400        22
    54.6600        16
    54.6800        12
    54.7000        20
    54.7200        16
    54.7400        14
    54.7600        14
    54.7800         8
    54.8000        14
    54.8200        12
    54.8400        12
    54.8600        12
    54.8800        12
    54.9000        14
    54.9200        10
    54.9400        10
    54.9600        12
    54.9800         8
    55.0000         6
    55.0200        12
    55.0400         6
    55.0600        14
    55.0800         8
    55.1000        16
    55.1200        10
    55.1400         6
    55.1600         4
    55.1800         8
    55.2000        10
    55.2200         4
    55.2400        10
    55.2600         6
    55.2800         6
    55.3000         6
    55.3200         6
    55.3400         4
    55.3600         6
    55.3800         4
    55.4000         4
    55.4200         8
    55.4400         8
    55.4600         8
    55.4800         8
    55.5000         8
    55.5200         8
    55.5400         8
    55.5600         4
    55.5800         8
    55.6000        12
    55.6200         4
    55.6400         6
    55.6600         6
    55.6800         2
    55.7000         8
    55.7200         6
    55.7400         8
    55.7600         6
    55.7800         6
    55.8000        12
    55.8200        10
    55.8400         8
    55.8600        12
    55.8800         4
    55.9000         4
    55.9200         6
    55.9400         8
    55.9600        10
    55.9800        14
    56.0000         8
    56.0200        10
    56.0400         6
    56.0600         8
    56.0800        10
    56.1000        12
    56.1200        22
    56.1400        14
    56.1600        18
    56.1800        16
    56.2000        28
    56.2200        20
    56.2400         8
    56.2600        12
    56.2800        18
    56.3000         6
    56.3200        16
    56.3400         6
    56.3600         8
    56.3800        10
    56.4000        14
    56.4200         6
    56.4400         8
    56.4600         6
    56.4800         4
    56.5000         4
    56.5200         4
    56.5400         8
    56.5600         2
    56.5800         6
    56.6000         2
    56.6200        10
    56.6400         2
    56.6600         6
    56.6800         2
    56.7000         4
    56.7200         8
    56.7400         4
    56.7600         8
    56.7800         4
    56.8000         4
    56.8200         4
    56.8400         4
    56.8600        10
    56.8800         8
    56.9000         2
    56.9200         6
    56.9400         0
    56.9600         6
    56.9800         8
    57.0000         6
    57.0200         4
    57.0400         8
    57.0600         8
    57.0800         2
    57.1000        10
    57.1200         4
    57.1400         2
    57.1600         2
    57.1800         2
    57.2000        12
    57.2200         8
    57.2400         4
    57.2600         6
    57.2800         4
    57.3000         4
    57.3200         4
    57.3400         8
    57.3600         4
    57.3800         2
    57.4000        10
    57.4200         6
    57.4400         4
    57.4600        12
    57.4800        10
    57.5000        16
    57.5200         8
    57.5400        18
    57.5600         6
    57.5800        18
    57.6000        10
    57.6200         8
    57.6400         6
    57.6600        14
    57.6800        14
    57.7000        12
    57.7200         6
    57.7400         6
    57.7600         6
    57.7800         8
    57.8000         4
    57.8200         6
    57.8400         2
    57.8600         2
    57.8800         2
    57.9000        10
    57.9200         6
    57.9400         4
    57.9600         2
    57.9800         6
    58.0000         2
    58.0200         4
    58.0400         2
    58.0600         8
    58.0800         4
    58.1000         2
    58.1200         4
    58.1400         4
    58.1600         2
    58.1800         0
    58.2000         6
    58.2200         2
    58.2400         8
    58.2600         4
    58.2800         4
    58.3000         4
    58.3200         2
    58.3400         2
    58.3600         6
    58.3800         0
    58.4000         4
    58.4200         2
    58.4400         2
    58.4600         2
    58.4800         4
    58.5000         8
    58.5200         0
    58.5400         2
    58.5600         2
    58.5800         4
    58.6000         4
    58.6200         4
    58.6400         6
    58.6600         6
    58.6800         2
    58.7000         2
    58.7200         8
    58.7400         2
    58.7600        10
    58.7800         2
    58.8000         2
    58.8200         6
    58.8400         4
    58.8600         6
    58.8800         2
    58.9000         4
    58.9200         8
    58.9400         6
    58.9600         4
    58.9800         6
    59.0000         0
    59.0200         2
    59.0400         6
    59.0600        12
    59.0800        10
    59.1000         2
    59.1200        10
    59.1400         4
    59.1600         2
    59.1800         4
    59.2000         2
    59.2200         4
    59.2400         8
    59.2600         2
    59.2800         6
    59.3000         6
    59.3200         6
    59.3400         2
    59.3600         8
    59.3800        12
    59.4000         6
    59.4200         4
    59.4400         6
    59.4600         8
    59.4800        12
    59.5000         8
    59.5200         2
    59.5400         2
    59.5600        12
    59.5800         6
    59.6000         4
    59.6200         4
    59.6400         4
    59.6600         2
    59.6800         0
    59.7000         4
    59.7200         6
    59.7400         8
    59.7600         6
    59.7800         6
    59.8000         8
    59.8200         4
    59.8400        20
    59.8600        10
    59.8800        10
    59.9000         8
    59.9200        10
    59.9400        10
    59.9600         2
    59.9800         2
    60.0000         8
